voltage mean,voltage std,voltage kurtosis,voltage skewness,CC Q,CC charge time,voltage slope,voltage entropy,current mean,current std,current kurtosis,current skewness,CV Q,CV charge time,current slope,current entropy,capacity
2.867280,0.032270,2.758863,-1.899686,0.012489,9.000000,0.015635,2.302644,4.995780,0.001268,-1.302628,0.353660,0.000001,0.000001,-0.000085,2.164017,0.012500
2.891620,0.034049,3.398196,-1.687292,0.026366,19.000000,0.009508,2.995754,4.995750,0.001523,0.037604,-0.077161,0.000001,0.000001,0.000145,2.718499,0.026400
2.909750,0.038080,2.365680,-1.310702,0.040247,29.000000,0.007232,3.216370,4.996193,0.001703,-0.232229,-0.528078,0.000001,0.000001,0.000060,3.031533,0.040300
2.925035,0.042420,1.506036,-1.063980,0.054124,39.000000,0.006003,3.342314,4.996120,0.002064,2.281463,-1.129040,0.000001,0.000001,0.000046,2.986570,0.054100
2.938534,0.046640,0.931005,-0.913156,0.068007,49.000000,0.005207,3.430223,4.996412,0.002045,2.369339,-1.054313,0.000001,0.000001,0.000077,3.033341,0.068000
2.950730,0.050607,0.553982,-0.821084,0.081887,59.000000,0.004643,3.473122,4.996503,0.002063,2.109873,-0.762283,0.000001,0.000001,0.000096,3.019191,0.081900
2.961929,0.054321,0.299496,-0.762275,0.095765,69.000000,0.004220,3.495551,4.996410,0.001966,2.214224,-0.647489,0.000001,0.000001,-0.000004,2.990838,0.095800
2.972314,0.057787,0.123278,-0.724410,0.109647,79.000000,0.003881,3.519504,4.996568,0.002028,1.902267,-0.394598,0.000001,0.000001,-0.000014,3.048897,0.109700
2.982028,0.061033,-0.002437,-0.699374,0.123524,89.000000,0.003608,3.535887,4.996473,0.001946,2.106859,-0.285684,0.000001,0.000001,0.000013,3.057247,0.123500
2.991162,0.064069,-0.093602,-0.683468,0.137404,99.000000,0.003377,3.551496,4.996532,0.002034,1.731982,-0.144652,0.000001,0.000001,0.000060,3.095764,0.137400
2.999798,0.066923,-0.160885,-0.673364,0.151284,109.000000,0.003184,3.551258,4.996541,0.002045,1.480491,-0.061801,0.000001,0.000001,0.000053,3.142487,0.151300
3.008003,0.069619,-0.211322,-0.666944,0.165163,119.000000,0.003016,3.568092,4.996514,0.002089,1.832061,0.272821,0.000001,0.000001,0.000020,3.074536,0.165200
3.015817,0.072163,-0.249252,-0.663702,0.179041,129.000000,0.002870,3.566671,4.996500,0.002056,1.842258,0.264532,0.000001,0.000001,0.000013,3.109655,0.179000
3.023289,0.074578,-0.277974,-0.662312,0.192921,139.000000,0.002739,3.576174,4.996507,0.002060,1.792448,0.279247,0.000001,0.000001,0.000003,3.104487,0.192900
3.030446,0.076869,-0.299561,-0.662641,0.206799,149.000000,0.002624,3.575596,4.996467,0.002033,1.788766,0.307880,0.000001,0.000001,-0.000018,3.099642,0.206800
3.037322,0.079052,-0.315697,-0.663999,0.220679,159.000000,0.002520,3.576956,4.996499,0.002019,1.673445,0.277956,0.000001,0.000001,0.000000,3.104995,0.220700
3.043943,0.081139,-0.327640,-0.666010,0.234559,169.000000,0.002426,3.585937,4.996516,0.002003,1.597734,0.259660,0.000001,0.000001,0.000004,3.119139,0.234600
3.050320,0.083123,-0.336002,-0.669119,0.248438,179.000000,0.002340,3.588370,4.996523,0.002000,1.492291,0.253562,0.000001,0.000001,0.000030,3.136433,0.248400
3.056476,0.085019,-0.341522,-0.672795,0.262317,189.000000,0.002260,3.585658,4.996523,0.002050,1.296822,0.302320,0.000001,0.000001,0.000000,3.181511,0.262300
3.062433,0.086841,-0.344840,-0.676630,0.276195,199.000000,0.002188,3.583404,4.996486,0.002095,1.334500,0.139993,0.000001,0.000001,-0.000001,3.200708,0.276200
3.068201,0.088589,-0.346331,-0.680754,0.290073,209.000000,0.002121,3.584811,4.996473,0.002096,1.279396,0.174142,0.000001,0.000001,0.000014,3.208597,0.290100
3.073793,0.090266,-0.346271,-0.685182,0.303953,219.000000,0.002059,3.589112,4.996492,0.002088,1.194359,0.147356,0.000001,0.000001,0.000026,3.223198,0.304000
3.079219,0.091878,-0.344916,-0.689825,0.317833,229.000000,0.002000,3.589316,4.996519,0.002168,0.929123,0.155615,0.000001,0.000001,0.000049,3.270433,0.317800
3.084490,0.093430,-0.342471,-0.694603,0.331713,239.000000,0.001946,3.584053,4.996507,0.002219,0.926689,0.085234,0.000001,0.000001,-0.000026,3.302900,0.331700
3.089613,0.094921,-0.339033,-0.699637,0.345588,249.000000,0.001895,3.585171,4.996452,0.002261,0.898740,0.024312,0.000001,0.000001,-0.000010,3.332074,0.345600
3.094602,0.096362,-0.334872,-0.704574,0.359461,259.000000,0.001848,3.584049,4.996373,0.002320,1.078724,-0.115693,0.000001,0.000001,0.000017,3.366662,0.359500
3.099460,0.097753,-0.330035,-0.709608,0.373341,269.000000,0.001802,3.581050,4.996379,0.002345,0.943494,-0.145034,0.000001,0.000001,0.000012,3.388877,0.373400
3.104198,0.099098,-0.324664,-0.714598,0.387223,279.000000,0.001761,3.582942,4.996421,0.002414,1.006993,-0.032222,0.000001,0.000001,-0.000006,3.353238,0.387200
3.108821,0.100402,-0.318862,-0.719513,0.401099,289.000000,0.001722,3.586051,4.996388,0.002425,0.930711,-0.051931,0.000001,0.000001,-0.000017,3.370365,0.401100
3.113331,0.101659,-0.312587,-0.724598,0.414979,299.000000,0.001683,3.582754,4.996409,0.002443,0.873766,-0.017653,0.000001,0.000001,0.000019,3.373710,0.415000
3.117735,0.102874,-0.305903,-0.729750,0.428862,309.000000,0.001647,3.579929,4.996452,0.002509,0.855953,0.065091,0.000001,0.000001,-0.000003,3.359351,0.428900
3.122037,0.104048,-0.298836,-0.735000,0.442743,319.000000,0.001613,3.580339,4.996482,0.002497,0.851409,0.055116,0.000001,0.000001,0.000015,3.356797,0.442800
3.126241,0.105183,-0.291428,-0.740304,0.456626,329.000000,0.001580,3.578872,4.996519,0.002489,0.849466,0.047684,0.000001,0.000001,0.000007,3.357472,0.456600
3.130350,0.106280,-0.283676,-0.745720,0.470507,339.000000,0.001548,3.575402,4.996538,0.002467,0.888974,0.036595,0.000001,0.000001,-0.000001,3.351432,0.470500
3.134370,0.107341,-0.275624,-0.751183,0.484388,349.000000,0.001518,3.572181,4.996547,0.002445,0.921488,0.028865,0.000001,0.000001,0.000003,3.346247,0.484400
3.138301,0.108365,-0.267238,-0.756800,0.498266,359.000000,0.001489,3.571056,4.996532,0.002424,0.965251,0.036283,0.000001,0.000001,-0.000010,3.339931,0.498300
3.142147,0.109354,-0.258532,-0.762535,0.512146,369.000000,0.001462,3.569074,4.996539,0.002413,0.945447,0.033615,0.000001,0.000001,0.000000,3.336941,0.512200
3.145911,0.110308,-0.249510,-0.768392,0.526024,379.000000,0.001435,3.565840,4.996532,0.002393,0.983830,0.037179,0.000001,0.000001,-0.000001,3.334260,0.526000
3.149591,0.111222,-0.240052,-0.774571,0.539902,389.000000,0.001409,3.562989,4.996522,0.002375,1.019509,0.038871,0.000001,0.000001,0.000009,3.330313,0.539900
3.153187,0.112096,-0.230098,-0.781130,0.553780,399.000000,0.001383,3.557105,4.996509,0.002357,1.048158,0.053278,0.000001,0.000001,0.000002,3.321762,0.553800
3.156700,0.112928,-0.219581,-0.788112,0.567661,409.000000,0.001358,3.552772,4.996524,0.002336,1.094118,0.037396,0.000001,0.000001,0.000000,3.314802,0.567700
3.160122,0.113707,-0.208242,-0.795838,0.581541,419.000000,0.001333,3.546480,4.996535,0.002315,1.150996,0.025470,0.000001,0.000001,0.000009,3.306587,0.581600
3.163454,0.114433,-0.195941,-0.804373,0.595420,429.000000,0.001308,3.538528,4.996531,0.002302,1.155733,0.031169,0.000001,0.000001,0.000005,3.303495,0.595400
3.166690,0.115098,-0.182460,-0.813870,0.609302,439.000000,0.001284,3.532070,4.996553,0.002291,1.154591,0.013911,0.000001,0.000001,0.000015,3.301544,0.609300
3.169831,0.115703,-0.167676,-0.824326,0.623182,449.000000,0.001260,3.518392,4.996560,0.002310,1.080607,-0.014930,0.000001,0.000001,0.000002,3.316787,0.623200
3.172876,0.116247,-0.151500,-0.835695,0.637061,459.000000,0.001236,3.505472,4.996554,0.002295,1.107614,-0.011702,0.000001,0.000001,0.000003,3.310791,0.637100
3.175826,0.116731,-0.133826,-0.847968,0.650940,469.000000,0.001214,3.490590,4.996551,0.002287,1.109472,-0.018481,0.000001,0.000001,0.000004,3.310901,0.651000
3.178679,0.117153,-0.114533,-0.861152,0.664818,479.000000,0.001190,3.471926,4.996545,0.002269,1.157786,-0.013298,0.000001,0.000001,-0.000001,3.301771,0.664800
3.181439,0.117518,-0.093647,-0.875104,0.678698,489.000000,0.001168,3.452624,4.996555,0.002258,1.166961,-0.022960,0.000001,0.000001,0.000011,3.297281,0.678700
3.184108,0.117827,-0.071114,-0.889790,0.692581,499.000000,0.001147,3.432705,4.996576,0.002267,1.122884,-0.011820,0.000001,0.000001,0.000011,3.303765,0.692600
3.186689,0.118085,-0.047017,-0.905059,0.706465,509.000000,0.001126,3.411978,4.996606,0.002265,1.101190,-0.026824,0.000001,0.000001,0.000001,3.304042,0.706500
3.189185,0.118296,-0.021399,-0.920828,0.720342,519.000000,0.001105,3.389689,4.996584,0.002258,1.109563,-0.019663,0.000001,0.000001,-0.000011,3.299478,0.720400
3.191601,0.118462,0.005706,-0.937029,0.734219,529.000000,0.001086,3.368188,4.996573,0.002245,1.131130,-0.009552,0.000001,0.000001,0.000000,3.295703,0.734200
3.193938,0.118587,0.034205,-0.953565,0.748099,539.000000,0.001067,3.344494,4.996579,0.002235,1.144964,-0.005761,0.000001,0.000001,0.000001,3.290550,0.748100
3.196203,0.118677,0.064011,-0.970355,0.761976,549.000000,0.001048,3.324941,4.996563,0.002223,1.165770,0.009011,0.000001,0.000001,-0.000002,3.284559,0.762000
3.198396,0.118732,0.095066,-0.987352,0.775855,559.000000,0.001031,3.299077,4.996559,0.002213,1.178151,0.009973,0.000001,0.000001,0.000000,3.281571,0.775900
3.200522,0.118756,0.127311,-1.004511,0.789736,569.000000,0.001014,3.276930,4.996572,0.002204,1.177416,-0.001222,0.000001,0.000001,0.000004,3.279760,0.789700
3.202582,0.118751,0.160693,-1.021799,0.803614,579.000000,0.000997,3.252494,4.996561,0.002198,1.171277,0.007532,0.000001,0.000001,0.000004,3.278248,0.803600
3.204582,0.118721,0.195096,-1.039145,0.817492,589.000000,0.000981,3.233789,4.996557,0.002195,1.141490,0.013778,0.000001,0.000001,0.000005,3.277793,0.817500
3.206523,0.118668,0.230437,-1.056506,0.831371,599.000000,0.000965,3.207257,4.996553,0.002194,1.135847,0.020300,0.000001,0.000001,0.000002,3.276007,0.831400
3.208408,0.118594,0.266730,-1.073901,0.845248,609.000000,0.000951,3.188167,4.996542,0.002180,1.174053,0.032608,0.000001,0.000001,0.000005,3.271262,0.845300
3.210241,0.118501,0.303805,-1.091238,0.859128,619.000000,0.000936,3.169486,4.996542,0.002170,1.195682,0.027335,0.000001,0.000001,0.000002,3.267674,0.859100
3.212023,0.118392,0.341632,-1.108516,0.873002,629.000000,0.000922,3.151621,4.996511,0.002197,1.164157,-0.017202,0.000001,0.000001,-0.000005,3.277093,0.873000
3.213758,0.118268,0.380155,-1.125717,0.886883,639.000000,0.000908,3.134231,4.996524,0.002190,1.170606,-0.022561,0.000001,0.000001,0.000005,3.273540,0.886900
3.215448,0.118131,0.419296,-1.142810,0.900766,649.000000,0.000895,3.115470,4.996543,0.002188,1.146108,-0.030032,0.000001,0.000001,0.000004,3.275290,0.900800
3.217095,0.117982,0.459031,-1.159799,0.914646,659.000000,0.000882,3.095529,4.996551,0.002180,1.154356,-0.038666,0.000001,0.000001,0.000001,3.273375,0.914700
3.218699,0.117821,0.499339,-1.176685,0.928526,669.000000,0.000870,3.082943,4.996553,0.002169,1.179462,-0.038914,0.000001,0.000001,0.000010,3.268319,0.928500
3.220265,0.117652,0.540090,-1.193415,0.942409,679.000000,0.000858,3.067788,4.996573,0.002168,1.155658,-0.046722,0.000001,0.000001,-0.000003,3.270550,0.942400
3.221793,0.117474,0.581315,-1.210018,0.956289,689.000000,0.000846,3.053573,4.996577,0.002154,1.208439,-0.052970,0.000001,0.000001,0.000002,3.261892,0.956300
3.223285,0.117288,0.622970,-1.226484,0.970169,699.000000,0.000835,3.040530,4.996581,0.002148,1.216224,-0.047178,0.000001,0.000001,0.000005,3.257910,0.970200
3.224744,0.117097,0.664947,-1.242775,0.984050,709.000000,0.000824,3.030081,4.996591,0.002139,1.239472,-0.055037,0.000001,0.000001,0.000007,3.254270,0.984100
3.226169,0.116900,0.707264,-1.258910,0.997929,719.000000,0.000813,3.015518,4.996585,0.002141,1.216332,-0.062529,0.000001,0.000001,0.000000,3.251537,0.997900
3.227564,0.116698,0.749886,-1.274886,1.011809,729.000000,0.000803,3.011689,4.996586,0.002139,1.216977,-0.049179,0.000001,0.000001,0.000003,3.251772,1.011800
3.228928,0.116491,0.792767,-1.290693,1.025688,739.000000,0.000793,3.001050,4.996588,0.002134,1.213292,-0.051374,0.000001,0.000001,0.000007,3.249702,1.025700
3.230263,0.116281,0.835912,-1.306344,1.039569,749.000000,0.000783,2.989096,4.996590,0.002124,1.236075,-0.054008,0.000001,0.000001,-0.000001,3.244730,1.039600
3.231572,0.116068,0.879254,-1.321818,1.053448,759.000000,0.000774,2.983843,4.996589,0.002126,1.222103,-0.053383,0.000001,0.000001,0.000000,3.244769,1.053500
3.232854,0.115852,0.922770,-1.337117,1.067327,769.000000,0.000764,2.976840,4.996593,0.002134,1.178663,-0.068040,0.000001,0.000001,0.000012,3.250513,1.067300
3.234112,0.115635,0.966404,-1.352224,1.081207,779.000000,0.000755,2.973514,4.996592,0.002126,1.199716,-0.069704,0.000001,0.000001,0.000003,3.245899,1.081200
3.235345,0.115416,1.010178,-1.367160,1.095086,789.000000,0.000747,2.962664,4.996592,0.002132,1.147982,-0.071512,0.000001,0.000001,0.000006,3.250860,1.095100
3.236556,0.115196,1.054075,-1.381926,1.108966,799.000000,0.000738,2.956331,4.996593,0.002129,1.139639,-0.067153,0.000001,0.000001,0.000000,3.251334,1.109000
3.237744,0.114975,1.098039,-1.396508,1.122846,809.000000,0.000730,2.950225,4.996597,0.002122,1.150040,-0.076182,0.000001,0.000001,0.000006,3.250997,1.122900
3.238912,0.114754,1.142074,-1.410915,1.136724,819.000000,0.000722,2.943172,4.996590,0.002122,1.124802,-0.075895,0.000001,0.000001,0.000003,3.253394,1.136700
3.240058,0.114532,1.186182,-1.425157,1.150602,829.000000,0.000714,2.935571,4.996583,0.002119,1.110365,-0.064289,0.000001,0.000001,-0.000004,3.253677,1.150600
3.241185,0.114311,1.230280,-1.439205,1.164481,839.000000,0.000706,2.931110,4.996581,0.002118,1.097168,-0.060963,0.000001,0.000001,0.000009,3.254537,1.164500
3.242294,0.114089,1.274405,-1.453085,1.178359,849.000000,0.000698,2.924230,4.996574,0.002119,1.069385,-0.059048,0.000001,0.000001,0.000002,3.257453,1.178400
3.243385,0.113869,1.318494,-1.466775,1.192237,859.000000,0.000691,2.919684,4.996565,0.002114,1.076690,-0.054289,0.000001,0.000001,-0.000004,3.254829,1.192300
3.244459,0.113650,1.362541,-1.480282,1.206114,869.000000,0.000684,2.914586,4.996560,0.002116,1.100618,-0.073593,0.000001,0.000001,0.000004,3.255016,1.206100
3.245516,0.113432,1.406534,-1.493608,1.219995,879.000000,0.000677,2.913398,4.996566,0.002122,1.051222,-0.075127,0.000001,0.000001,-0.000007,3.258433,1.220000
3.246558,0.113215,1.450462,-1.506754,1.233874,889.000000,0.000670,2.909319,4.996566,0.002121,1.036090,-0.069901,0.000001,0.000001,-0.000002,3.259703,1.233900
3.247584,0.113000,1.494314,-1.519723,1.247756,899.000000,0.000663,2.906337,4.996578,0.002128,1.002089,-0.070802,0.000001,0.000001,0.000003,3.263643,1.247800
3.248594,0.112786,1.538125,-1.532536,1.261636,909.000000,0.000657,2.901283,4.996578,0.002122,1.012706,-0.074865,0.000001,0.000001,-0.000001,3.261214,1.261700
3.249590,0.112572,1.581852,-1.545180,1.275516,919.000000,0.000650,2.899804,4.996580,0.002118,1.013736,-0.075282,0.000001,0.000001,0.000001,3.260150,1.275500
3.250572,0.112361,1.625468,-1.557650,1.289394,929.000000,0.000644,2.898961,4.996575,0.002118,1.017719,-0.084847,0.000001,0.000001,0.000003,3.259970,1.289400
3.251542,0.112152,1.668932,-1.569936,1.303273,939.000000,0.000638,2.899800,4.996573,0.002113,1.030045,-0.074913,0.000001,0.000001,0.000000,3.257473,1.303300
3.252498,0.111945,1.712274,-1.582055,1.317152,949.000000,0.000632,2.896343,4.996573,0.002106,1.047738,-0.074376,0.000001,0.000001,0.000001,3.253968,1.317200
3.253442,0.111740,1.755473,-1.594004,1.331033,959.000000,0.000626,2.893966,4.996579,0.002104,1.029443,-0.080756,0.000001,0.000001,0.000002,3.255379,1.331100
3.254374,0.111537,1.798503,-1.605776,1.344910,969.000000,0.000621,2.892835,4.996566,0.002109,1.037294,-0.095423,0.000001,0.000001,-0.000007,3.256982,1.344900
3.255294,0.111336,1.841399,-1.617393,1.358790,979.000000,0.000615,2.889506,4.996571,0.002102,1.049074,-0.102188,0.000001,0.000001,0.000004,3.253545,1.358800
3.256203,0.111137,1.884104,-1.628835,1.372667,989.000000,0.000610,2.888999,4.996563,0.002111,1.039655,-0.112720,0.000001,0.000001,0.000005,3.257729,1.372700
3.257102,0.110941,1.926611,-1.640104,1.386542,999.000000,0.000604,2.887147,4.996548,0.002127,1.150436,-0.162438,0.000001,0.000001,-0.000001,3.229924,1.386600
3.257990,0.110747,1.968945,-1.651215,1.400419,1009.000000,0.000599,2.882360,4.996541,0.002128,1.149278,-0.169456,0.000001,0.000001,0.000003,3.229039,1.400400
3.258867,0.110555,2.011094,-1.662168,1.414301,1019.000000,0.000594,2.877489,4.996549,0.002126,1.139575,-0.172131,0.000001,0.000001,0.000002,3.229910,1.414300
3.259735,0.110365,2.053024,-1.672953,1.428181,1029.000000,0.000589,2.880118,4.996551,0.002120,1.146729,-0.173379,0.000001,0.000001,0.000003,3.226816,1.428200
3.260593,0.110178,2.094731,-1.683572,1.442060,1039.000000,0.000584,2.879056,4.996550,0.002126,1.096784,-0.170940,0.000001,0.000001,-0.000003,3.231626,1.442100
3.261442,0.109993,2.136267,-1.694050,1.455938,1049.000000,0.000579,2.875772,4.996546,0.002125,1.088278,-0.172150,0.000001,0.000001,0.000004,3.232571,1.456000
3.262282,0.109811,2.177515,-1.704344,1.469818,1059.000000,0.000574,2.876793,4.996549,0.002120,1.094924,-0.170933,0.000001,0.000001,0.000006,3.230695,1.469800
3.263113,0.109632,2.218541,-1.714486,1.483699,1069.000000,0.000570,2.877696,4.996555,0.002118,1.087007,-0.171962,0.000001,0.000001,0.000002,3.230042,1.483700
3.263936,0.109454,2.259355,-1.724481,1.497577,1079.000000,0.000565,2.878505,4.996549,0.002122,1.074156,-0.179739,0.000001,0.000001,0.000001,3.231936,1.497600
3.264752,0.109281,2.299816,-1.734279,1.511460,1089.000000,0.000561,2.876951,4.996563,0.002130,1.028142,-0.177390,0.000001,0.000001,0.000008,3.237335,1.511500
3.265559,0.109108,2.340102,-1.743953,1.525343,1099.000000,0.000556,2.877531,4.996573,0.002129,1.015325,-0.179989,0.000001,0.000001,-0.000001,3.236545,1.525400
3.266358,0.108939,2.380099,-1.753462,1.539222,1109.000000,0.000552,2.878169,4.996571,0.002129,0.991686,-0.174124,0.000001,0.000001,0.000000,3.236821,1.539300
3.267150,0.108772,2.419859,-1.762828,1.553097,1119.000000,0.000548,2.877796,4.996559,0.002135,0.953507,-0.175592,0.000001,0.000001,0.000001,3.241511,1.553100
3.267935,0.108607,2.459335,-1.772037,1.566975,1129.000000,0.000543,2.878665,4.996556,0.002137,0.940490,-0.185587,0.000001,0.000001,0.000004,3.242630,1.567000
3.268711,0.108445,2.498605,-1.781122,1.580855,1139.000000,0.000539,2.877207,4.996556,0.002131,0.952876,-0.186704,0.000001,0.000001,0.000002,3.239994,1.580900
3.269481,0.108285,2.537597,-1.790057,1.594734,1149.000000,0.000535,2.876339,4.996554,0.002125,0.968118,-0.185609,0.000001,0.000001,0.000002,3.237834,1.594800
3.270244,0.108127,2.576284,-1.798836,1.608611,1159.000000,0.000531,2.875379,4.996549,0.002121,0.969943,-0.184255,0.000001,0.000001,0.000003,3.235806,1.608600
3.271001,0.107972,2.614728,-1.807484,1.622491,1169.000000,0.000527,2.872666,4.996550,0.002120,0.960698,-0.187531,0.000001,0.000001,0.000001,3.235465,1.622500
3.271750,0.107818,2.652923,-1.816002,1.636371,1179.000000,0.000524,2.873318,4.996553,0.002116,0.964142,-0.193254,0.000001,0.000001,0.000002,3.233852,1.636400
3.272493,0.107667,2.690817,-1.824373,1.650253,1189.000000,0.000520,2.872033,4.996559,0.002114,0.965992,-0.190435,0.000001,0.000001,0.000001,3.233131,1.650300
3.273230,0.107519,2.728399,-1.832595,1.664134,1199.000000,0.000516,2.872088,4.996565,0.002115,0.954569,-0.186814,0.000001,0.000001,0.000002,3.234339,1.664200
3.273962,0.107373,2.765651,-1.840664,1.678011,1209.000000,0.000512,2.873761,4.996558,0.002118,0.991033,-0.204013,0.000001,0.000001,0.000002,3.236274,1.678000
3.274687,0.107229,2.802678,-1.848622,1.691891,1219.000000,0.000509,2.870054,4.996559,0.002116,0.987562,-0.205147,0.000001,0.000001,-0.000001,3.236505,1.691900
3.275407,0.107088,2.839412,-1.856445,1.705770,1229.000000,0.000505,2.871187,4.996558,0.002119,0.967477,-0.194948,0.000001,0.000001,-0.000002,3.238646,1.705800
3.276120,0.106948,2.875864,-1.864140,1.719649,1239.000000,0.000502,2.872970,4.996559,0.002122,0.963274,-0.187093,0.000001,0.000001,0.000001,3.239087,1.719700
